# Frequency - Magnitude - Phase - Real part - Imaginary part
-99800.00252116012 0.00048036070007261483 -0.7071313887762225 0.3651839477213219 -0.3120690412407541
-99600.00251610769 0.00048037391115438797 -0.703992592845514 0.36617173857978 -0.3109298190640857
-99400.00251105527 0.00048039886720746463 -0.7008521559509203 0.36716546053092536 -0.3097944418599674
-99200.00250600284 0.00048042136150394904 -0.6977128363552196 0.36815343111468746 -0.30865471930263944
-99000.00250095042 0.0004804519974918998 -0.6945697706678674 0.36914527163030275 -0.30751567492885057
-98800.00249589799 0.00048048560327831446 -0.6914282733761405 0.37013539590419375 -0.306375918858796
-98600.00249084557 0.00048052608687455437 -0.688288172963402 0.37112688754288237 -0.305237863820504
-98400.00248579314 0.00048057081451046834 -0.6851461080109142 0.3721187649701435 -0.3040985572414806
-98200.00248074072 0.0004806183454071727 -0.6820059827108551 0.3731087350594231 -0.3029585215244582
-98000.00247568829 0.0004806730189598494 -0.6788656343174315 0.37410084067716365 -0.3018196682799436
-97800.00247063587 0.00048073383958773485 -0.6757198179073137 0.3750959130137902 -0.3006793650470832
-97600.00246558344 0.00048079693573374783 -0.6725834520757238 0.37608646182302785 -0.29954075957104376
-97400.00246053102 0.0004808622185314784 -0.6694445103474351 0.37707604107130044 -0.2983992836134334
-97200.00245547859 0.00048093643011189814 -0.666301941206513 0.3780702566261864 -0.29725869350346384
-97000.00245042617 0.0004810143191169934 -0.6631619876861424 0.37906315022020465 -0.296118056424662
-96800.00244537374 0.00048109593189682806 -0.6600195027150902 0.38005629605388214 -0.29497543544756627
-96600.00244032132 0.00048118540771675204 -0.6568783872036871 0.3810518276214936 -0.29383481969612874
-96400.00243526889 0.00048127431076960435 -0.6537333391396859 0.3820446390989434 -0.29268900891990435
-96200.00243021647 0.0004813712516886616 -0.650600385669096 0.38303688154484894 -0.2915493600210882
-96000.00242516404 0.0004814731534084799 -0.6474549897934564 0.38403330239314015 -0.29040458003641156
-95800.00242011162 0.0004815783305569993 -0.6443171041372566 0.385026756803212 -0.289261274642263
-95600.00241505919 0.00048168995648163217 -0.6411760712409094 0.3860228913550536 -0.28811723573080655
-95400.00241000677 0.0004818081461026475 -0.6380299610657173 0.3870223662586765 -0.2869717367031203
-95200.00240495434 0.00048192646212493937 -0.634893372030904 0.38801583375068527 -0.28582656919016686
-95000.00239990192 0.0004820532204045487 -0.6317506089555391 0.38901449453903253 -0.2846805759811115
-94800.00239484949 0.0004821823746831706 -0.6286085781437822 0.3900115139479481 -0.2835328225146623
-94600.00238979707 0.00048231761020263957 -0.6254731366283486 0.3910082295443499 -0.282387750336622
-94400.00238474464 0.0004824579149519035 -0.6223255674850298 0.3920091272702927 -0.2812374154278225
-94200.00237969222 0.0004826027041635275 -0.6191890477836121 0.3930072132795983 -0.28009052175351024
-94000.0023746398 0.0004827528196654181 -0.6160483759990476 0.3940074654460384 -0.2789415746490662
-93800.00236958737 0.00048290532706397513 -0.6129059046935186 0.3950068324432453 -0.2777897716438075
-93600.00236453494 0.00048306728495527894 -0.6097660562851327 0.39600987183373615 -0.2766408921405014
-93400.00235948252 0.0004832312419415606 -0.6066241909851261 0.397011787582785 -0.2754887905318558
-93200.0023544301 0.0004834006190350045 -0.6034788832821751 0.39801577875026894 -0.2743348289030078
-93000.00234937767 0.00048357706332296114 -0.6003427361245454 0.3990197660097291 -0.27318492364257624
-92800.00234432524 0.00048375276150987485 -0.5971982927476128 0.4000220938104613 -0.2720276800840759
-92600.00233927282 0.0004839367074008976 -0.5940582712032841 0.40102672466985245 -0.2708732228748208
-92400.0023342204 0.0004841259388916773 -0.5909217828322216 0.4020314844603985 -0.2697195028364031
-92200.00232916797 0.00048432102704100346 -0.5877765595265443 0.4030401702049706 -0.26856187077692306
-92000.00232411554 0.00048451969128810525 -0.5846328511281608 0.404048126470995 -0.2674031464683983
-91800.00231906312 0.00048472340950160835 -0.5814980510283702 0.4050546304646532 -0.2662471221591084
-91600.0023140107 0.0004849317156627538 -0.5783554751399559 0.40606375858119714 -0.26508676470645065
-91400.00230895827 0.0004851453712822305 -0.5752108232218289 0.4070746287141561 -0.26392475809178123
-91200.00230390584 0.0004853640955547774 -0.5720754182978395 0.4080840362377388 -0.26276553164679534
-91000.00229885342 0.00048558624601222614 -0.5689314174750725 0.4090953097046328 -0.26160089811374276
-90800.002293801 0.0004858161156880079 -0.5657882690801238 0.41010958622159305 -0.26043698959890016
-90600.00228874857 0.0004860499353742579 -0.5626489893738417 0.41112292382611093 -0.25927298583151703
-90400.00228369614 0.0004862894746093949 -0.559510587679279 0.41213761366881263 -0.25810858280045224
-90200.00227864372 0.00048653205008407965 -0.5563712962503065 0.4131518490871988 -0.25694159911319514
-90000.0022735913 0.00048678033053714727 -0.5532292093274755 0.41416838614217544 -0.25577262972851533
-89800.00226853887 0.00048703255383000717 -0.5500863206002702 0.4151852193707857 -0.25460153594629276
-89600.00226348644 0.00048729427370839594 -0.5469412027831579 0.41620745642779566 -0.25343058695212317
-89400.00225843402 0.00048755944978458673 -0.5438042958382326 0.4172273190281206 -0.2522609389716446
-89200.0022533816 0.00048782441115648195 -0.5406643620562364 0.4182445127271819 -0.2510860085583635
-89000.00224832917 0.0004880982734646574 -0.5375225852188821 0.41926654562516813 -0.24991096070144314
-88800.00224327674 0.0004883796890140231 -0.5343798990268973 0.4202920475140922 -0.24873543261434616
-88600.00223822432 0.0004886638865281687 -0.5312395596892023 0.42131611683918413 -0.24755832381151288
-88400.0022331719 0.0004889515834189784 -0.5281009309246499 0.42233953671576696 -0.2463797204614
-88200.00222811947 0.000489247829378119 -0.5249588034547744 0.4233679618973498 -0.2451999335034274
-88000.00222306704 0.0004895480845990568 -0.5218192789143483 0.4243959807443156 -0.24401921781424463
-87800.00221801462 0.0004898528050613193 -0.5186748303694545 0.4254258299089866 -0.2428345812949484
-87600.0022129622 0.0004901635206477614 -0.5155310497877805 0.426457477181418 -0.24164911986156445
-87400.00220790977 0.0004904805561396819 -0.5123915295650089 0.42749035658533296 -0.24046449005546844
-87200.00220285734 0.0004908004109287883 -0.5092544021732186 0.42852188735526475 -0.23927815492716675
-87000.00219780492 0.0004911251696099763 -0.5061120115454228 0.42955572141830345 -0.23808782921692728
-86800.0021927525 0.0004914583373783356 -0.5029708451285247 0.4305933808898257 -0.23689794788589347
-86600.00218770007 0.0004917962293488653 -0.4998368619177491 0.43163025378017905 -0.23570925994415215
-86400.00218264764 0.000492135632557134 -0.49669218064620313 0.4326677398055262 -0.23451248956929338
-86200.00217759522 0.0004924819799422631 -0.4935491702260448 0.43370768997483233 -0.23331553789781412
-86000.0021725428 0.0004928353899726152 -0.490411822671141 0.43474930298656267 -0.23212015242575929
-85800.00216749037 0.0004931963428807373 -0.48726819884363703 0.4357957955352802 -0.23092132258565046
-85600.00216243794 0.0004935578582820859 -0.48412694833423103 0.436838996611482 -0.22971950398578084
-85400.00215738552 0.0004939273094512324 -0.4809857168667502 0.437885975326752 -0.22851708827541245
-85200.0021523331 0.0004943003153890023 -0.47784533724870154 0.43893267008062764 -0.2273123686242305
-85000.00214728067 0.0004946808673371762 -0.47470227548689503 0.43998343152667857 -0.22610559588711976
-84800.00214222824 0.0004950649146844789 -0.47156460861309535 0.44103284047938757 -0.22489842900792667
-84600.00213717582 0.0004954575624527267 -0.4684220118109042 0.4420877790683786 -0.22368860451526362
-84400.0021321234 0.0004958557370363325 -0.4652791732286282 0.44314445891231796 -0.2224767414521201
-84200.00212707097 0.0004962563920641955 -0.46214035595262787 0.44419921505002563 -0.22126333635176348
-84000.00212201854 0.0004966626526732651 -0.4589981483456744 0.44525648769611975 -0.22004647401164928
-83800.00211696612 0.0004970751674820654 -0.45585801500928197 0.4463156569140261 -0.21882882927238978
-83600.0021119137 0.0004974947332263762 -0.4527148011486682 0.44737857676431114 -0.21760840663982312
-83400.00210686127 0.000497917870603636 -0.4495731553750723 0.44844110772447365 -0.21638571757236258
-83200.00210180884 0.0004983503794350627 -0.4464330628691517 0.44950848680482025 -0.21516324261711556
-83000.00209675642 0.000498785641950335 -0.44329645340078155 0.4505743487586286 -0.2139389465631385
-82800.002091704 0.0004992280385434147 -0.44015108582170975 0.45164526601442967 -0.21270916330675588
-82600.00208665157 0.0004996703371831886 -0.437012939337752 0.45271128492410884 -0.21147798552833746
-82400.00208159914 0.0005001258960827535 -0.4338736140480317 0.4537862999034308 -0.21024724957185698
-82200.00207654672 0.0005005841803605705 -0.4307311150222258 0.454861184881558 -0.20901154062732807
-82000.0020714943 0.0005010493240431885 -0.42759016747142137 0.4559387000885621 -0.20777470222740874
-81800.00206644187 0.0005015183521465377 -0.4244508663722202 0.4570161285855236 -0.2065355072438605
-81600.00206138944 0.0005019935298101039 -0.4213074928515641 0.45809671368140914 -0.20529224263352186
-81400.00205633702 0.000502474403750182 -0.41816794015998177 0.4591784199276611 -0.20404829109021566
-81200.0020512846 0.0005029609674030869 -0.4150250721413861 0.4602627053482681 -0.20280033726930147
-81000.00204623217 0.0005034556978791896 -0.4118841641352871 0.46135076644133155 -0.20155175521691154
-80800.00204117974 0.0005039568081287776 -0.40874592434518997 0.46244084010623465 -0.20030210648214752
-80600.00203612732 0.0005044616634362568 -0.4056067785268704 0.46353123103072186 -0.19904865670488392
-80400.0020310749 0.0005049726019168744 -0.40246230037048286 0.4646249566731161 -0.19779023818986396
-80200.00202602247 0.0005054885413028471 -0.3993213552981489 0.4657192599254047 -0.19653049718304128
-80000.00202097005 0.0005060147824006203 -0.39618080767344477 0.4668196548660304 -0.19526999216138502
-79800.0020159176 0.0005065435196711535 -0.39304040975377075 0.4679189978761771 -0.19400553792970565
-79600.00201086518 0.000507080301559327 -0.3898959596563905 0.46902321997655555 -0.19273725989626805
-79400.00200581276 0.0005076219672546971 -0.3867574202818311 0.47012747905923974 -0.19146857463545514
-79200.00200076033 0.0005081687027015167 -0.38361920604548994 0.47123302907510084 -0.1901969051116438
-79000.0019957079 0.0005087231819482597 -0.38047741359477594 0.47234308857736657 -0.18892136598266554
-78800.00199065548 0.0005092839307045219 -0.3773342886144827 0.4734558580105247 -0.18764240615960512
-78600.00198560306 0.0005098530956559016 -0.37419474081038334 0.4745724160040108 -0.18636308947327038
-78400.00198055063 0.0005104269215693747 -0.37105516527611293 0.47568995146792536 -0.18508028618745792
-78200.0019754982 0.0005110042931311752 -0.3679146784779676 0.47680758043812155 -0.18379314142599606
-78000.00197044578 0.0005115898077041 -0.36476796425115016 0.4779305549050039 -0.18250072886132013
-77800.00196539336 0.0005121844980447588 -0.3616323805742203 0.4790566768819777 -0.18121164524433292
-77600.00196034093 0.0005127813177184295 -0.35849349355311394 0.48018199658866123 -0.17991645270284728
-77400.0019552885 0.0005133868858341695 -0.3553483239352954 0.48131322388068415 -0.178615998902923
-77200.00195023608 0.000513996947678385 -0.35220760536686646 0.4824444439277621 -0.17731390454763807
-77000.00194518366 0.0005146124785533182 -0.3490672406200493 0.48357730397061344 -0.17600850595156536
-76800.00194013123 0.0005152395408219209 -0.3459256657835645 0.4847177769742135 -0.17470106213632625
-76600.0019350788 0.0005158716384696897 -0.3427822265249768 0.4858598676673526 -0.1733889741813614
-76400.00193002638 0.0005165105382094041 -0.33964209840982895 0.4870043369078795 -0.17207530884553107
-76200.00192497396 0.00051715614672269 -0.3365043951438747 0.4881512592882865 -0.17075956239203888
-76000.00191992153 0.0005178076773084843 -0.33336225840280953 0.489301060724232 -0.1694380791137246
-75800.0019148691 0.0005184648403352656 -0.330221133801767 0.49045252902962966 -0.16811337672033333
-75600.00190981668 0.0005191307063061087 -0.32707940658272383 0.49160883893089025 -0.16678561003546222
-75400.00190476426 0.0005198029317734276 -0.3239379267135789 0.492767628453735 -0.16545438110951416
-75200.00189971183 0.0005204805927251895 -0.32080020412601995 0.493927440821205 -0.16412108520046909
-75000.0018946594 0.0005211673562581731 -0.3176587458312502 0.49509298656389944 -0.1627831314490908
-74800.00188960698 0.000521859614095738 -0.31452301176135894 0.496259294729928 -0.16144401264310493
-74600.00188455456 0.0005225574359509276 -0.31137799063629784 0.497428849641381 -0.16009626295469914
-74400.00187950213 0.0005232666189371292 -0.308238623596239 0.4986047572902519 -0.1587490173242777
-74200.0018744497 0.0005239816119760024 -0.30509264850401846 0.499783683573524 -0.15739440689760742
-74000.00186939728 0.0005247017198009436 -0.30195343312736955 0.5009628433697959 -0.15603885517689903
-73800.00186434486 0.0005254296799410477 -0.29881207466933374 0.5021462467076092 -0.15467868463499657
-73600.00185929243 0.0005261655020512029 -0.2956741674858353 0.5033330328717595 -0.1533166447875467
-73400.00185424 0.0005269069244123514 -0.29253021308578786 0.504522489763964 -0.15194724188366926
-73200.00184918758 0.0005276567716707528 -0.28938840154633727 0.5057160560607079 -0.1505753609738458
-73000.00184413516 0.0005284152809962973 -0.2862493281793839 0.506913876096556 -0.14920131169383627
-72800.00183908273 0.0005291788861720625 -0.28310875886635406 0.5081131598299559 -0.1478218873439332
-72600.0018340303 0.0005299512430504118 -0.27996869663745727 0.5093171084581838 -0.14643907621420998
-72400.00182897788 0.0005307310162812212 -0.27682751720960486 0.5105246715844587 -0.14505161614569662
-72200.00182392546 0.0005315194566409661 -0.2736814112839604 0.5117375885179203 -0.14365783405638413
-72000.00181887303 0.0005323138038725641 -0.27054813518717147 0.5129506479608252 -0.14226601333364255
-71800.0018138206 0.0005331155331257892 -0.26740966376686964 0.5141678534263334 -0.1408672785388818
-71600.00180876818 0.0005339252195301399 -0.2642624366672884 0.5153902260620915 -0.13945986852845665
-71400.00180371576 0.0005347454503091787 -0.2611240629759733 0.5166177896664929 -0.13805345351157935
-71200.00179866333 0.0005355682226410625 -0.25798347636462743 0.5178443538610396 -0.1366402073957341
-71000.0017936109 0.0005364036554478971 -0.25484126391882983 0.5190796003531205 -0.13522296430381575
-70800.00178855848 0.0005372467653217888 -0.2516970899071709 0.5203187428781177 -0.13380019678035032
-70600.00178350606 0.0005380938432814007 -0.24855950070742666 0.5215570365053317 -0.13237538233797352
-70400.00177845363 0.0005389518359743454 -0.24542246581535881 0.5228020184430153 -0.1309470542319558
-70200.0017734012 0.0005398170755800817 -0.2422793929814763 0.5240509806414675 -0.12951079019351197
-70000.00176834878 0.0005406918596881548 -0.23913944352317792 0.525304943579642 -0.12807186804222248
-69800.00176329636 0.0005415741185280211 -0.23599566867637012 0.5265627805686602 -0.1266260793802132
-69600.00175824393 0.0005424642837178309 -0.2328555289171808 0.527823948327581 -0.12517738885830193
-69400.00175319151 0.0005433639238562429 -0.22971553943217174 0.5290904089966768 -0.1237242613887114
-69200.00174813908 0.0005442690601737686 -0.22657530547291335 0.5303583251228274 -0.12226551776910222
-69000.00174308666 0.0005451857302055885 -0.22343765303099777 0.5316332235211269 -0.12080395717167686
-68800.00173803423 0.0005461080080154293 -0.2202916239606181 0.5329106345670782 -0.11933235933263908
-68600.00173298181 0.000547039704411841 -0.21715086507427228 0.5341926154506075 -0.11785876208850005
-68400.00172792938 0.0005479806125692338 -0.21401408735770347 0.5354791260490642 -0.11638237545901459
-68200.00172287696 0.0005489325298049355 -0.2108721601313228 0.5367729784195447 -0.11489861581697791
-68000.00171782453 0.0005498889386609675 -0.20773017202951863 0.5380671859366384 -0.11340876632744212
-67800.00171277211 0.0005508560776026856 -0.20459007232663298 0.5393676160854863 -0.11191511493125245
-67600.00170771968 0.0005518323461731359 -0.201446457312062 0.5406732950924095 -0.11041433900025838
-67400.00170266726 0.0005528177141472213 -0.19830338797856514 0.5419837207825299 -0.10890854641249981
-67200.00169761483 0.0005538125293779438 -0.19516326650651156 0.5432989638888759 -0.1073990387911819
-67000.00169256241 0.0005548146120257786 -0.1920255834740516 0.5446169371152406 -0.10588505807964232
-66800.00168750998 0.0005558268657706987 -0.1888854673706839 0.5459409928116652 -0.10436444356336882
-66600.00168245756 0.0005568477197707553 -0.18574421605824398 0.5472694280692412 -0.10283752289245068
-66400.00167740513 0.0005578770921970166 -0.18260452308643685 0.5486018665396398 -0.10130568605671536
-66200.00167235271 0.0005589188800861182 -0.1794624693693262 0.5499425224402918 -0.09976741215812779
-66000.00166730028 0.000559968832836599 -0.17632411188992295 0.5512865928386337 -0.0982251816224004
-65800.00166224786 0.0005610256420851571 -0.17318136437593687 0.5526335678070473 -0.09667425101813037
-65600.00165719543 0.0005620952447602275 -0.1700445634982938 0.5539882724009939 -0.09512128165779804
-65400.00165214301 0.0005631711337086241 -0.1669012083601105 0.5553454737022936 -0.09355816736678951
-65200.00164709058 0.0005642598313267264 -0.1637580675688027 0.5567109290602592 -0.09198966634208838
-65000.00164203816 0.0005653583308820005 -0.16061995923647535 0.5580812209830557 -0.09041788033206327
-64800.00163698573 0.0005664651942118733 -0.1574809532330366 0.5594554597293966 -0.08883920774334225
-64600.00163193331 0.0005675816146169061 -0.1543393707748582 0.5608349440392535 -0.08725282113273841
-64400.00162688088 0.0005687097607869932 -0.15119800269205633 0.5622215451396095 -0.085660528805448
-64200.00162182846 0.0005698450218954415 -0.1480527993325715 0.563611025214211 -0.0840592721596029
-64000.00161677603 0.0005709947851779823 -0.14491282257310925 0.5650099025323401 -0.08245516806632425
-63800.00161172361 0.0005721550469738296 -0.14177523848558965 0.5664144515891701 -0.08084594491107744
-63600.00160667118 0.000573321835988296 -0.1386332623334845 0.567821265974491 -0.0792271262139228
-63400.00160161876 0.0005745018591808373 -0.135492771956764 0.5692364856240741 -0.07760289708890955
-63200.00159656633 0.0005756900583848497 -0.13235206193124593 0.5706552134346632 -0.07597151244374811
-63000.00159151391 0.0005768894179704271 -0.12921117625332354 0.5720803776133145 -0.07433331767159057
-62800.00158646148 0.0005781017125862161 -0.1260669474204496 0.5735139442919213 -0.07268662736596809
-62600.00158140905 0.0005793222657771352 -0.12292769093772661 0.5749506426912556 -0.07103552698520499
-62400.001576356626 0.0005805561006940001 -0.11978699773295073 0.5763959008748349 -0.06937688021026434
-62200.0015713042 0.0005817985976421045 -0.11664506080727753 0.5778450870545182 -0.06771014388757202
-62000.001566251776 0.0005830528694261966 -0.11350942231799283 0.579300760683056 -0.06603996682429614
-61800.00156119935 0.0005843210782576466 -0.11036565553987422 0.5807660048143812 -0.06435813971923854
-61600.001556146926 0.0005855955253536731 -0.10722696592182332 0.5822322715964527 -0.06267137485231111
-61400.0015510945 0.0005868847300785023 -0.10408193439223246 0.5837087232465681 -0.060973869855684204
-61200.00154604208 0.0005881853134969832 -0.10094386767289693 0.5851911517705705 -0.05927291879920893
-61000.00154098965 0.0005894984978947335 -0.09780147733061756 0.5866814298578902 -0.05756195688168242
-60800.00153593723 0.0005908228629117125 -0.09466347960272607 0.5881776058329632 -0.055845853344680674
-60600.0015308848 0.0005921575550207327 -0.0915189881852154 0.589679410955632 -0.05411804008970422
